# Nota: eF está en meV/nm (entonces V(z) está en meV).
# barrido: E_field de 0.0 a 4.0 meV/nm en pasos de 0.1 meV/nm
# columnas:
#  1: E_field_meV_por_nm
#  2: E0_meV   3: E1_meV   4: E2_meV   5: E3_meV
#  6: z10_nm   7: z20_nm   8: z30_nm   (elementos de dipolo ⟨1|z|0⟩, ⟨2|z|0⟩, ⟨3|z|0⟩)
#  9: abs_z10_nm  10: abs_z20_nm  11: abs_z30_nm
# ---------------------------------------------------------------
   0.000	   21.782082	   77.590759	  141.464694	  187.317606	  3.174783e+00	 -1.515057e-01	  7.988618e-02	  3.174783e+00	  1.515057e-01	  7.988618e-02
   0.100	   21.653568	   77.537583	  141.566997	  188.030427	  3.172105e+00	 -1.557066e-01	  8.214951e-02	  3.172105e+00	  1.557066e-01	  8.214951e-02
   0.200	   21.521447	   77.482610	  141.661832	  188.722837	  3.169370e+00	 -1.599237e-01	  8.436434e-02	  3.169370e+00	  1.599237e-01	  8.436434e-02
   0.300	   21.385730	   77.425850	  141.749391	  189.394248	  3.166580e+00	 -1.641534e-01	  8.652720e-02	  3.166580e+00	  1.641534e-01	  8.652720e-02
   0.400	   21.246428	   77.367313	  141.829854	  190.044090	  3.163734e+00	 -1.683921e-01	  8.863425e-02	  3.163734e+00	  1.683921e-01	  8.863425e-02
   0.500	   21.103552	   77.307006	  141.903388	  190.671819	  3.160833e+00	 -1.726365e-01	  9.068126e-02	  3.160833e+00	  1.726365e-01	  9.068126e-02
   0.600	   20.957115	   77.244937	  141.970147	  191.276927	  3.157879e+00	 -1.768834e-01	  9.266373e-02	  3.157879e+00	  1.768834e-01	  9.266373e-02
   0.700	   20.807128	   77.181111	  142.030275	  191.858948	  3.154872e+00	 -1.811295e-01	  9.457688e-02	  3.154872e+00	  1.811295e-01	  9.457688e-02
   0.800	   20.653602	   77.115535	  142.083907	  192.417464	  3.151814e+00	 -1.853720e-01	  9.641580e-02	  3.151814e+00	  1.853720e-01	  9.641580e-02
   0.900	   20.496550	   77.048212	  142.131168	  192.952117	  3.148704e+00	 -1.896080e-01	  9.817547e-02	  3.148704e+00	  1.896080e-01	  9.817547e-02
   1.000	   20.335984	   76.979146	  142.172174	  193.462610	  3.145545e+00	 -1.938347e-01	  9.985091e-02	  3.145545e+00	  1.938347e-01	  9.985091e-02
   1.100	   20.171917	   76.908340	  142.207033	  193.948713	  3.142338e+00	 -1.980494e-01	  1.014372e-01	  3.142338e+00	  1.980494e-01	  1.014372e-01
   1.200	   20.004360	   76.835797	  142.235844	  194.410270	  3.139082e+00	 -2.022496e-01	  1.029297e-01	  3.139082e+00	  2.022496e-01	  1.029297e-01
   1.300	   19.833327	   76.761516	  142.258702	  194.847196	  3.135781e+00	 -2.064327e-01	  1.043239e-01	  3.135781e+00	  2.064327e-01	  1.043239e-01
   1.400	   19.658831	   76.685500	  142.275691	  195.259481	  3.132434e+00	 -2.105963e-01	  1.056157e-01	  3.132434e+00	  2.105963e-01	  1.056157e-01
   1.500	   19.480885	   76.607747	  142.286893	  195.647190	  3.129044e+00	 -2.147381e-01	  1.068014e-01	  3.129044e+00	  2.147381e-01	  1.068014e-01
   1.600	   19.299502	   76.528256	  142.292381	  196.010458	  3.125611e+00	 -2.188557e-01	  1.078777e-01	  3.125611e+00	  2.188557e-01	  1.078777e-01
   1.700	   19.114695	   76.447026	  142.292224	  196.349489	  3.122136e+00	 -2.229471e-01	  1.088420e-01	  3.122136e+00	  2.229471e-01	  1.088420e-01
   1.800	   18.926477	   76.364055	  142.286486	  196.664547	  3.118621e+00	 -2.270100e-01	  1.096920e-01	  3.118621e+00	  2.270100e-01	  1.096920e-01
   1.900	   18.734863	   76.279340	  142.275224	  196.955956	  3.115068e+00	 -2.310423e-01	  1.104258e-01	  3.115068e+00	  2.310423e-01	  1.104258e-01
   2.000	   18.539867	   76.192876	  142.258494	  197.224086	  3.111477e+00	 -2.350419e-01	  1.110423e-01	  3.111477e+00	  2.350419e-01	  1.110423e-01
   2.100	   18.341500	   76.104660	  142.236344	  197.469348	  3.107850e+00	 -2.390070e-01	  1.115404e-01	  3.107850e+00	  2.390070e-01	  1.115404e-01
   2.200	   18.139779	   76.014686	  142.208822	  197.692185	  3.104189e+00	 -2.429356e-01	  1.119199e-01	  3.104189e+00	  2.429356e-01	  1.119199e-01
   2.300	   17.934717	   75.922950	  142.175969	  197.893061	  3.100495e+00	 -2.468257e-01	  1.121805e-01	  3.100495e+00	  2.468257e-01	  1.121805e-01
   2.400	   17.726327	   75.829444	  142.137824	  198.072451	  3.096768e+00	 -2.506755e-01	  1.123224e-01	  3.096768e+00	  2.506755e-01	  1.123224e-01
   2.500	   17.514625	   75.734163	  142.094423	  198.230830	  3.093012e+00	 -2.544832e-01	  1.123459e-01	  3.093012e+00	  2.544832e-01	  1.123459e-01
   2.600	   17.299624	   75.637099	  142.045798	  198.368663	  3.089227e+00	 -2.582470e-01	  1.122513e-01	  3.089227e+00	  2.582470e-01	  1.122513e-01
   2.700	   17.081339	   75.538243	  141.991979	  198.486389	  3.085414e+00	 -2.619652e-01	  1.120391e-01	  3.085414e+00	  2.619652e-01	  1.120391e-01
   2.800	   16.859784	   75.437589	  141.932992	  198.584408	  3.081576e+00	 -2.656362e-01	  1.117093e-01	  3.081576e+00	  2.656362e-01	  1.117093e-01
   2.900	   16.634974	   75.335127	  141.868862	  198.663067	  3.077713e+00	 -2.692581e-01	  1.112617e-01	  3.077713e+00	  2.692581e-01	  1.112617e-01
   3.000	   16.406924	   75.230846	  141.799611	  198.722640	  3.073827e+00	 -2.728294e-01	  1.106958e-01	  3.073827e+00	  2.728294e-01	  1.106958e-01
   3.100	   16.175648	   75.124739	  141.725258	  198.763303	  3.069920e+00	 -2.763485e-01	  1.100100e-01	  3.069920e+00	  2.763485e-01	  1.100100e-01
   3.200	   15.941160	   75.016793	  141.645821	  198.785105	  3.065993e+00	 -2.798138e-01	  1.092018e-01	  3.065993e+00	  2.798138e-01	  1.092018e-01
   3.300	   15.703476	   74.906999	  141.561315	  198.787926	  3.062048e+00	 -2.832238e-01	  1.082671e-01	  3.062048e+00	  2.832238e-01	  1.082671e-01
   3.400	   15.462611	   74.795344	  141.471753	  198.771423	  3.058086e+00	 -2.865769e-01	  1.071994e-01	  3.058086e+00	  2.865769e-01	  1.071994e-01
   3.500	   15.218578	   74.681816	  141.377146	  198.734947	  3.054108e+00	 -2.898717e-01	  1.059893e-01	  3.054108e+00	  2.898717e-01	  1.059893e-01
   3.600	   14.971393	   74.566404	  141.277505	  198.677420	  3.050117e+00	 -2.931065e-01	  1.046222e-01	  3.050117e+00	  2.931065e-01	  1.046222e-01
   3.700	   14.721071	   74.449095	  141.172836	  198.597153	  3.046113e+00	 -2.962801e-01	  1.030765e-01	  3.046113e+00	  2.962801e-01	  1.030765e-01
   3.800	   14.467627	   74.329874	  141.063145	  198.491555	  3.042099e+00	 -2.993909e-01	  1.013189e-01	  3.042099e+00	  2.993909e-01	  1.013189e-01
   3.900	   14.211075	   74.208729	  140.948437	  198.356655	  3.038075e+00	 -3.024376e-01	  9.929788e-02	  3.038075e+00	  3.024376e-01	  9.929788e-02
   4.000	   13.951431	   74.085646	  140.828714	  198.186306	  3.034043e+00	 -3.054186e-01	  9.693103e-02	  3.034043e+00	  3.054186e-01	  9.693103e-02
